'*',    14,     4,     4,     0,     5,     5,    60,    11
'OMNIDIRECTIONAL FLUENCE ANALYSIS'
'MULASSIS tag ml-v01-26'
'geant4-10-01-patch-03 (5-February-2016)'
'File Created: Tue Nov 14 20:35:34 2023'
'FLU_BDY',  1, 1, ' '
'FLU_PAR', -1, 'proton', ' '
'FLU_AMN',  1,   0., 'deg'
'FLU_AMX',  1, 180., 'deg'
'Elo','keV',  1,'Lower edge of energy bin'
'Eup','keV',  1,'Upper edge of energy bin'
'Emean','keV',  1,'Mean energy of bin'
'Value','particles/cm2/bin',  1,'Fluence/flux'
'Error','particles/cm2/bin',  1,'Error in fluence/flux'
 1.0000e+00, 1.2589e+00, 0.0000e+00, 0.0000e+00, 0.0000e+00
 1.2589e+00, 1.5849e+00, 0.0000e+00, 0.0000e+00, 0.0000e+00
 1.5849e+00, 1.9953e+00, 0.0000e+00, 0.0000e+00, 0.0000e+00
 1.9953e+00, 2.5119e+00, 0.0000e+00, 0.0000e+00, 0.0000e+00
 2.5119e+00, 3.1623e+00, 0.0000e+00, 0.0000e+00, 0.0000e+00
 3.1623e+00, 3.9811e+00, 0.0000e+00, 0.0000e+00, 0.0000e+00
 3.9811e+00, 5.0119e+00, 0.0000e+00, 0.0000e+00, 0.0000e+00
 5.0119e+00, 6.3096e+00, 0.0000e+00, 0.0000e+00, 0.0000e+00
 6.3096e+00, 7.9433e+00, 0.0000e+00, 0.0000e+00, 0.0000e+00
 7.9433e+00, 1.0000e+01, 0.0000e+00, 0.0000e+00, 0.0000e+00
 1.0000e+01, 1.2589e+01, 0.0000e+00, 0.0000e+00, 0.0000e+00
 1.2589e+01, 1.5849e+01, 0.0000e+00, 0.0000e+00, 0.0000e+00
 1.5849e+01, 1.9953e+01, 0.0000e+00, 0.0000e+00, 0.0000e+00
 1.9953e+01, 2.5119e+01, 0.0000e+00, 0.0000e+00, 0.0000e+00
 2.5119e+01, 3.1623e+01, 0.0000e+00, 0.0000e+00, 0.0000e+00
 3.1623e+01, 3.9811e+01, 0.0000e+00, 0.0000e+00, 0.0000e+00
 3.9811e+01, 5.0119e+01, 0.0000e+00, 0.0000e+00, 0.0000e+00
 5.0119e+01, 6.3096e+01, 0.0000e+00, 0.0000e+00, 0.0000e+00
 6.3096e+01, 7.9433e+01, 0.0000e+00, 0.0000e+00, 0.0000e+00
 7.9433e+01, 1.0000e+02, 0.0000e+00, 0.0000e+00, 0.0000e+00
 1.0000e+02, 1.2589e+02, 0.0000e+00, 0.0000e+00, 0.0000e+00
 1.2589e+02, 1.5849e+02, 0.0000e+00, 0.0000e+00, 0.0000e+00
 1.5849e+02, 1.9953e+02, 0.0000e+00, 0.0000e+00, 0.0000e+00
 1.9953e+02, 2.5119e+02, 0.0000e+00, 0.0000e+00, 0.0000e+00
 2.5119e+02, 3.1623e+02, 0.0000e+00, 0.0000e+00, 0.0000e+00
 3.1623e+02, 3.9811e+02, 0.0000e+00, 0.0000e+00, 0.0000e+00
 3.9811e+02, 5.0119e+02, 0.0000e+00, 0.0000e+00, 0.0000e+00
 5.0119e+02, 6.3096e+02, 0.0000e+00, 0.0000e+00, 0.0000e+00
 6.3096e+02, 7.9433e+02, 0.0000e+00, 0.0000e+00, 0.0000e+00
 7.9433e+02, 1.0000e+03, 0.0000e+00, 0.0000e+00, 0.0000e+00
 1.0000e+03, 1.2589e+03, 0.0000e+00, 0.0000e+00, 0.0000e+00
 1.2589e+03, 1.5849e+03, 0.0000e+00, 0.0000e+00, 0.0000e+00
 1.5849e+03, 1.9953e+03, 0.0000e+00, 0.0000e+00, 0.0000e+00
 1.9953e+03, 2.5119e+03, 0.0000e+00, 0.0000e+00, 0.0000e+00
 2.5119e+03, 3.1623e+03, 0.0000e+00, 0.0000e+00, 0.0000e+00
 3.1623e+03, 3.9811e+03, 0.0000e+00, 0.0000e+00, 0.0000e+00
 3.9811e+03, 5.0119e+03, 0.0000e+00, 0.0000e+00, 0.0000e+00
 5.0119e+03, 6.3096e+03, 0.0000e+00, 0.0000e+00, 0.0000e+00
 6.3096e+03, 7.9433e+03, 0.0000e+00, 0.0000e+00, 0.0000e+00
 7.9433e+03, 1.0000e+04, 0.0000e+00, 0.0000e+00, 0.0000e+00
 1.0000e+04, 1.2589e+04, 0.0000e+00, 0.0000e+00, 0.0000e+00
 1.2589e+04, 1.5849e+04, 0.0000e+00, 0.0000e+00, 0.0000e+00
 1.5849e+04, 1.9953e+04, 0.0000e+00, 0.0000e+00, 0.0000e+00
 1.9953e+04, 2.5119e+04, 0.0000e+00, 0.0000e+00, 0.0000e+00
 2.5119e+04, 3.1623e+04, 0.0000e+00, 0.0000e+00, 0.0000e+00
 3.1623e+04, 3.9811e+04, 0.0000e+00, 0.0000e+00, 0.0000e+00
 3.9811e+04, 5.0119e+04, 0.0000e+00, 0.0000e+00, 0.0000e+00
 5.0119e+04, 6.3096e+04, 0.0000e+00, 0.0000e+00, 0.0000e+00
 6.3096e+04, 7.9433e+04, 0.0000e+00, 0.0000e+00, 0.0000e+00
 7.9433e+04, 1.0000e+05, 0.0000e+00, 0.0000e+00, 0.0000e+00
 1.0000e+05, 1.2589e+05, 0.0000e+00, 0.0000e+00, 0.0000e+00
 1.2589e+05, 1.5849e+05, 1.0000e+05, 1.0785e+00, 3.4106e-01
 1.5849e+05, 1.9953e+05, 0.0000e+00, 0.0000e+00, 0.0000e+00
 1.9953e+05, 2.5119e+05, 0.0000e+00, 0.0000e+00, 0.0000e+00
 2.5119e+05, 3.1623e+05, 0.0000e+00, 0.0000e+00, 0.0000e+00
 3.1623e+05, 3.9811e+05, 0.0000e+00, 0.0000e+00, 0.0000e+00
 3.9811e+05, 5.0119e+05, 0.0000e+00, 0.0000e+00, 0.0000e+00
 5.0119e+05, 6.3096e+05, 0.0000e+00, 0.0000e+00, 0.0000e+00
 6.3096e+05, 7.9433e+05, 0.0000e+00, 0.0000e+00, 0.0000e+00
 7.9433e+05, 1.0000e+06, 0.0000e+00, 0.0000e+00, 0.0000e+00
'End of Block'
'*',    14,     4,     4,     0,     5,     5,    60,    10
'OMNIDIRECTIONAL FLUENCE ANALYSIS AS A FUNCTION OF ANGLE'
'MULASSIS tag ml-v01-26'
'geant4-10-01-patch-03 (5-February-2016)'
'File Created: Tue Nov 14 20:35:34 2023'
'FLU_BDY',  1, 1, ' '
'FLU_PAR', -1, 'proton', ' '
'FLU_AMN',  1, 0.0000e+00, 'deg'
'FLU_AMX',  1, 9.0000e+01, 'deg'
'Elo','keV',  1,'Lower edge of energy bin'
'Eup','keV',  1,'Upper edge of energy bin'
'Emean','keV',  1,'Mean energy of bin'
'Value','particles/cm2/bin',  1,'Fluence/flux'
'Error','particles/cm2/bin',  1,'Error in fluence/flux'
 1.0000e+00, 1.2589e+00, 0.0000e+00, 0.0000e+00, 0.0000e+00
 1.2589e+00, 1.5849e+00, 0.0000e+00, 0.0000e+00, 0.0000e+00
 1.5849e+00, 1.9953e+00, 0.0000e+00, 0.0000e+00, 0.0000e+00
 1.9953e+00, 2.5119e+00, 0.0000e+00, 0.0000e+00, 0.0000e+00
 2.5119e+00, 3.1623e+00, 0.0000e+00, 0.0000e+00, 0.0000e+00
 3.1623e+00, 3.9811e+00, 0.0000e+00, 0.0000e+00, 0.0000e+00
 3.9811e+00, 5.0119e+00, 0.0000e+00, 0.0000e+00, 0.0000e+00
 5.0119e+00, 6.3096e+00, 0.0000e+00, 0.0000e+00, 0.0000e+00
 6.3096e+00, 7.9433e+00, 0.0000e+00, 0.0000e+00, 0.0000e+00
 7.9433e+00, 1.0000e+01, 0.0000e+00, 0.0000e+00, 0.0000e+00
 1.0000e+01, 1.2589e+01, 0.0000e+00, 0.0000e+00, 0.0000e+00
 1.2589e+01, 1.5849e+01, 0.0000e+00, 0.0000e+00, 0.0000e+00
 1.5849e+01, 1.9953e+01, 0.0000e+00, 0.0000e+00, 0.0000e+00
 1.9953e+01, 2.5119e+01, 0.0000e+00, 0.0000e+00, 0.0000e+00
 2.5119e+01, 3.1623e+01, 0.0000e+00, 0.0000e+00, 0.0000e+00
 3.1623e+01, 3.9811e+01, 0.0000e+00, 0.0000e+00, 0.0000e+00
 3.9811e+01, 5.0119e+01, 0.0000e+00, 0.0000e+00, 0.0000e+00
 5.0119e+01, 6.3096e+01, 0.0000e+00, 0.0000e+00, 0.0000e+00
 6.3096e+01, 7.9433e+01, 0.0000e+00, 0.0000e+00, 0.0000e+00
 7.9433e+01, 1.0000e+02, 0.0000e+00, 0.0000e+00, 0.0000e+00
 1.0000e+02, 1.2589e+02, 0.0000e+00, 0.0000e+00, 0.0000e+00
 1.2589e+02, 1.5849e+02, 0.0000e+00, 0.0000e+00, 0.0000e+00
 1.5849e+02, 1.9953e+02, 0.0000e+00, 0.0000e+00, 0.0000e+00
 1.9953e+02, 2.5119e+02, 0.0000e+00, 0.0000e+00, 0.0000e+00
 2.5119e+02, 3.1623e+02, 0.0000e+00, 0.0000e+00, 0.0000e+00
 3.1623e+02, 3.9811e+02, 0.0000e+00, 0.0000e+00, 0.0000e+00
 3.9811e+02, 5.0119e+02, 0.0000e+00, 0.0000e+00, 0.0000e+00
 5.0119e+02, 6.3096e+02, 0.0000e+00, 0.0000e+00, 0.0000e+00
 6.3096e+02, 7.9433e+02, 0.0000e+00, 0.0000e+00, 0.0000e+00
 7.9433e+02, 1.0000e+03, 0.0000e+00, 0.0000e+00, 0.0000e+00
 1.0000e+03, 1.2589e+03, 0.0000e+00, 0.0000e+00, 0.0000e+00
 1.2589e+03, 1.5849e+03, 0.0000e+00, 0.0000e+00, 0.0000e+00
 1.5849e+03, 1.9953e+03, 0.0000e+00, 0.0000e+00, 0.0000e+00
 1.9953e+03, 2.5119e+03, 0.0000e+00, 0.0000e+00, 0.0000e+00
 2.5119e+03, 3.1623e+03, 0.0000e+00, 0.0000e+00, 0.0000e+00
 3.1623e+03, 3.9811e+03, 0.0000e+00, 0.0000e+00, 0.0000e+00
 3.9811e+03, 5.0119e+03, 0.0000e+00, 0.0000e+00, 0.0000e+00
 5.0119e+03, 6.3096e+03, 0.0000e+00, 0.0000e+00, 0.0000e+00
 6.3096e+03, 7.9433e+03, 0.0000e+00, 0.0000e+00, 0.0000e+00
 7.9433e+03, 1.0000e+04, 0.0000e+00, 0.0000e+00, 0.0000e+00
 1.0000e+04, 1.2589e+04, 0.0000e+00, 0.0000e+00, 0.0000e+00
 1.2589e+04, 1.5849e+04, 0.0000e+00, 0.0000e+00, 0.0000e+00
 1.5849e+04, 1.9953e+04, 0.0000e+00, 0.0000e+00, 0.0000e+00
 1.9953e+04, 2.5119e+04, 0.0000e+00, 0.0000e+00, 0.0000e+00
 2.5119e+04, 3.1623e+04, 0.0000e+00, 0.0000e+00, 0.0000e+00
 3.1623e+04, 3.9811e+04, 0.0000e+00, 0.0000e+00, 0.0000e+00
 3.9811e+04, 5.0119e+04, 0.0000e+00, 0.0000e+00, 0.0000e+00
 5.0119e+04, 6.3096e+04, 0.0000e+00, 0.0000e+00, 0.0000e+00
 6.3096e+04, 7.9433e+04, 0.0000e+00, 0.0000e+00, 0.0000e+00
 7.9433e+04, 1.0000e+05, 0.0000e+00, 0.0000e+00, 0.0000e+00
 1.0000e+05, 1.2589e+05, 0.0000e+00, 0.0000e+00, 0.0000e+00
 1.2589e+05, 1.5849e+05, 1.0000e+05, 1.0785e+00, 3.4106e-01
 1.5849e+05, 1.9953e+05, 0.0000e+00, 0.0000e+00, 0.0000e+00
 1.9953e+05, 2.5119e+05, 0.0000e+00, 0.0000e+00, 0.0000e+00
 2.5119e+05, 3.1623e+05, 0.0000e+00, 0.0000e+00, 0.0000e+00
 3.1623e+05, 3.9811e+05, 0.0000e+00, 0.0000e+00, 0.0000e+00
 3.9811e+05, 5.0119e+05, 0.0000e+00, 0.0000e+00, 0.0000e+00
 5.0119e+05, 6.3096e+05, 0.0000e+00, 0.0000e+00, 0.0000e+00
 6.3096e+05, 7.9433e+05, 0.0000e+00, 0.0000e+00, 0.0000e+00
 7.9433e+05, 1.0000e+06, 0.0000e+00, 0.0000e+00, 0.0000e+00
'End of Block'
'*',    14,     4,     4,     0,     5,     5,    60,     9
'OMNIDIRECTIONAL FLUENCE ANALYSIS AS A FUNCTION OF ANGLE'
'MULASSIS tag ml-v01-26'
'geant4-10-01-patch-03 (5-February-2016)'
'File Created: Tue Nov 14 20:35:34 2023'
'FLU_BDY',  1, 1, ' '
'FLU_PAR', -1, 'proton', ' '
'FLU_AMN',  1, 9.0000e+01, 'deg'
'FLU_AMX',  1, 1.8000e+02, 'deg'
'Elo','keV',  1,'Lower edge of energy bin'
'Eup','keV',  1,'Upper edge of energy bin'
'Emean','keV',  1,'Mean energy of bin'
'Value','particles/cm2/bin',  1,'Fluence/flux'
'Error','particles/cm2/bin',  1,'Error in fluence/flux'
 1.0000e+00, 1.2589e+00, 0.0000e+00, 0.0000e+00, 0.0000e+00
 1.2589e+00, 1.5849e+00, 0.0000e+00, 0.0000e+00, 0.0000e+00
 1.5849e+00, 1.9953e+00, 0.0000e+00, 0.0000e+00, 0.0000e+00
 1.9953e+00, 2.5119e+00, 0.0000e+00, 0.0000e+00, 0.0000e+00
 2.5119e+00, 3.1623e+00, 0.0000e+00, 0.0000e+00, 0.0000e+00
 3.1623e+00, 3.9811e+00, 0.0000e+00, 0.0000e+00, 0.0000e+00
 3.9811e+00, 5.0119e+00, 0.0000e+00, 0.0000e+00, 0.0000e+00
 5.0119e+00, 6.3096e+00, 0.0000e+00, 0.0000e+00, 0.0000e+00
 6.3096e+00, 7.9433e+00, 0.0000e+00, 0.0000e+00, 0.0000e+00
 7.9433e+00, 1.0000e+01, 0.0000e+00, 0.0000e+00, 0.0000e+00
 1.0000e+01, 1.2589e+01, 0.0000e+00, 0.0000e+00, 0.0000e+00
 1.2589e+01, 1.5849e+01, 0.0000e+00, 0.0000e+00, 0.0000e+00
 1.5849e+01, 1.9953e+01, 0.0000e+00, 0.0000e+00, 0.0000e+00
 1.9953e+01, 2.5119e+01, 0.0000e+00, 0.0000e+00, 0.0000e+00
 2.5119e+01, 3.1623e+01, 0.0000e+00, 0.0000e+00, 0.0000e+00
 3.1623e+01, 3.9811e+01, 0.0000e+00, 0.0000e+00, 0.0000e+00
 3.9811e+01, 5.0119e+01, 0.0000e+00, 0.0000e+00, 0.0000e+00
 5.0119e+01, 6.3096e+01, 0.0000e+00, 0.0000e+00, 0.0000e+00
 6.3096e+01, 7.9433e+01, 0.0000e+00, 0.0000e+00, 0.0000e+00
 7.9433e+01, 1.0000e+02, 0.0000e+00, 0.0000e+00, 0.0000e+00
 1.0000e+02, 1.2589e+02, 0.0000e+00, 0.0000e+00, 0.0000e+00
 1.2589e+02, 1.5849e+02, 0.0000e+00, 0.0000e+00, 0.0000e+00
 1.5849e+02, 1.9953e+02, 0.0000e+00, 0.0000e+00, 0.0000e+00
 1.9953e+02, 2.5119e+02, 0.0000e+00, 0.0000e+00, 0.0000e+00
 2.5119e+02, 3.1623e+02, 0.0000e+00, 0.0000e+00, 0.0000e+00
 3.1623e+02, 3.9811e+02, 0.0000e+00, 0.0000e+00, 0.0000e+00
 3.9811e+02, 5.0119e+02, 0.0000e+00, 0.0000e+00, 0.0000e+00
 5.0119e+02, 6.3096e+02, 0.0000e+00, 0.0000e+00, 0.0000e+00
 6.3096e+02, 7.9433e+02, 0.0000e+00, 0.0000e+00, 0.0000e+00
 7.9433e+02, 1.0000e+03, 0.0000e+00, 0.0000e+00, 0.0000e+00
 1.0000e+03, 1.2589e+03, 0.0000e+00, 0.0000e+00, 0.0000e+00
 1.2589e+03, 1.5849e+03, 0.0000e+00, 0.0000e+00, 0.0000e+00
 1.5849e+03, 1.9953e+03, 0.0000e+00, 0.0000e+00, 0.0000e+00
 1.9953e+03, 2.5119e+03, 0.0000e+00, 0.0000e+00, 0.0000e+00
 2.5119e+03, 3.1623e+03, 0.0000e+00, 0.0000e+00, 0.0000e+00
 3.1623e+03, 3.9811e+03, 0.0000e+00, 0.0000e+00, 0.0000e+00
 3.9811e+03, 5.0119e+03, 0.0000e+00, 0.0000e+00, 0.0000e+00
 5.0119e+03, 6.3096e+03, 0.0000e+00, 0.0000e+00, 0.0000e+00
 6.3096e+03, 7.9433e+03, 0.0000e+00, 0.0000e+00, 0.0000e+00
 7.9433e+03, 1.0000e+04, 0.0000e+00, 0.0000e+00, 0.0000e+00
 1.0000e+04, 1.2589e+04, 0.0000e+00, 0.0000e+00, 0.0000e+00
 1.2589e+04, 1.5849e+04, 0.0000e+00, 0.0000e+00, 0.0000e+00
 1.5849e+04, 1.9953e+04, 0.0000e+00, 0.0000e+00, 0.0000e+00
 1.9953e+04, 2.5119e+04, 0.0000e+00, 0.0000e+00, 0.0000e+00
 2.5119e+04, 3.1623e+04, 0.0000e+00, 0.0000e+00, 0.0000e+00
 3.1623e+04, 3.9811e+04, 0.0000e+00, 0.0000e+00, 0.0000e+00
 3.9811e+04, 5.0119e+04, 0.0000e+00, 0.0000e+00, 0.0000e+00
 5.0119e+04, 6.3096e+04, 0.0000e+00, 0.0000e+00, 0.0000e+00
 6.3096e+04, 7.9433e+04, 0.0000e+00, 0.0000e+00, 0.0000e+00
 7.9433e+04, 1.0000e+05, 0.0000e+00, 0.0000e+00, 0.0000e+00
 1.0000e+05, 1.2589e+05, 0.0000e+00, 0.0000e+00, 0.0000e+00
 1.2589e+05, 1.5849e+05, 0.0000e+00, 0.0000e+00, 0.0000e+00
 1.5849e+05, 1.9953e+05, 0.0000e+00, 0.0000e+00, 0.0000e+00
 1.9953e+05, 2.5119e+05, 0.0000e+00, 0.0000e+00, 0.0000e+00
 2.5119e+05, 3.1623e+05, 0.0000e+00, 0.0000e+00, 0.0000e+00
 3.1623e+05, 3.9811e+05, 0.0000e+00, 0.0000e+00, 0.0000e+00
 3.9811e+05, 5.0119e+05, 0.0000e+00, 0.0000e+00, 0.0000e+00
 5.0119e+05, 6.3096e+05, 0.0000e+00, 0.0000e+00, 0.0000e+00
 6.3096e+05, 7.9433e+05, 0.0000e+00, 0.0000e+00, 0.0000e+00
 7.9433e+05, 1.0000e+06, 0.0000e+00, 0.0000e+00, 0.0000e+00
'End of Block'
'*',    14,     4,     4,     0,     5,     5,    60,     8
'OMNIDIRECTIONAL FLUENCE ANALYSIS'
'MULASSIS tag ml-v01-26'
'geant4-10-01-patch-03 (5-February-2016)'
'File Created: Tue Nov 14 20:35:34 2023'
'FLU_BDY',  1, 2, ' '
'FLU_PAR', -1, 'proton', ' '
'FLU_AMN',  1,   0., 'deg'
'FLU_AMX',  1, 180., 'deg'
'Elo','keV',  1,'Lower edge of energy bin'
'Eup','keV',  1,'Upper edge of energy bin'
'Emean','keV',  1,'Mean energy of bin'
'Value','particles/cm2/bin',  1,'Fluence/flux'
'Error','particles/cm2/bin',  1,'Error in fluence/flux'
 1.0000e+00, 1.2589e+00, 0.0000e+00, 0.0000e+00, 0.0000e+00
 1.2589e+00, 1.5849e+00, 0.0000e+00, 0.0000e+00, 0.0000e+00
 1.5849e+00, 1.9953e+00, 0.0000e+00, 0.0000e+00, 0.0000e+00
 1.9953e+00, 2.5119e+00, 0.0000e+00, 0.0000e+00, 0.0000e+00
 2.5119e+00, 3.1623e+00, 0.0000e+00, 0.0000e+00, 0.0000e+00
 3.1623e+00, 3.9811e+00, 0.0000e+00, 0.0000e+00, 0.0000e+00
 3.9811e+00, 5.0119e+00, 0.0000e+00, 0.0000e+00, 0.0000e+00
 5.0119e+00, 6.3096e+00, 0.0000e+00, 0.0000e+00, 0.0000e+00
 6.3096e+00, 7.9433e+00, 0.0000e+00, 0.0000e+00, 0.0000e+00
 7.9433e+00, 1.0000e+01, 0.0000e+00, 0.0000e+00, 0.0000e+00
 1.0000e+01, 1.2589e+01, 0.0000e+00, 0.0000e+00, 0.0000e+00
 1.2589e+01, 1.5849e+01, 0.0000e+00, 0.0000e+00, 0.0000e+00
 1.5849e+01, 1.9953e+01, 0.0000e+00, 0.0000e+00, 0.0000e+00
 1.9953e+01, 2.5119e+01, 0.0000e+00, 0.0000e+00, 0.0000e+00
 2.5119e+01, 3.1623e+01, 0.0000e+00, 0.0000e+00, 0.0000e+00
 3.1623e+01, 3.9811e+01, 0.0000e+00, 0.0000e+00, 0.0000e+00
 3.9811e+01, 5.0119e+01, 0.0000e+00, 0.0000e+00, 0.0000e+00
 5.0119e+01, 6.3096e+01, 0.0000e+00, 0.0000e+00, 0.0000e+00
 6.3096e+01, 7.9433e+01, 0.0000e+00, 0.0000e+00, 0.0000e+00
 7.9433e+01, 1.0000e+02, 0.0000e+00, 0.0000e+00, 0.0000e+00
 1.0000e+02, 1.2589e+02, 0.0000e+00, 0.0000e+00, 0.0000e+00
 1.2589e+02, 1.5849e+02, 0.0000e+00, 0.0000e+00, 0.0000e+00
 1.5849e+02, 1.9953e+02, 0.0000e+00, 0.0000e+00, 0.0000e+00
 1.9953e+02, 2.5119e+02, 0.0000e+00, 0.0000e+00, 0.0000e+00
 2.5119e+02, 3.1623e+02, 0.0000e+00, 0.0000e+00, 0.0000e+00
 3.1623e+02, 3.9811e+02, 0.0000e+00, 0.0000e+00, 0.0000e+00
 3.9811e+02, 5.0119e+02, 0.0000e+00, 0.0000e+00, 0.0000e+00
 5.0119e+02, 6.3096e+02, 0.0000e+00, 0.0000e+00, 0.0000e+00
 6.3096e+02, 7.9433e+02, 0.0000e+00, 0.0000e+00, 0.0000e+00
 7.9433e+02, 1.0000e+03, 0.0000e+00, 0.0000e+00, 0.0000e+00
 1.0000e+03, 1.2589e+03, 0.0000e+00, 0.0000e+00, 0.0000e+00
 1.2589e+03, 1.5849e+03, 0.0000e+00, 0.0000e+00, 0.0000e+00
 1.5849e+03, 1.9953e+03, 0.0000e+00, 0.0000e+00, 0.0000e+00
 1.9953e+03, 2.5119e+03, 0.0000e+00, 0.0000e+00, 0.0000e+00
 2.5119e+03, 3.1623e+03, 0.0000e+00, 0.0000e+00, 0.0000e+00
 3.1623e+03, 3.9811e+03, 0.0000e+00, 0.0000e+00, 0.0000e+00
 3.9811e+03, 5.0119e+03, 0.0000e+00, 0.0000e+00, 0.0000e+00
 5.0119e+03, 6.3096e+03, 0.0000e+00, 0.0000e+00, 0.0000e+00
 6.3096e+03, 7.9433e+03, 0.0000e+00, 0.0000e+00, 0.0000e+00
 7.9433e+03, 1.0000e+04, 0.0000e+00, 0.0000e+00, 0.0000e+00
 1.0000e+04, 1.2589e+04, 0.0000e+00, 0.0000e+00, 0.0000e+00
 1.2589e+04, 1.5849e+04, 0.0000e+00, 0.0000e+00, 0.0000e+00
 1.5849e+04, 1.9953e+04, 0.0000e+00, 0.0000e+00, 0.0000e+00
 1.9953e+04, 2.5119e+04, 0.0000e+00, 0.0000e+00, 0.0000e+00
 2.5119e+04, 3.1623e+04, 0.0000e+00, 0.0000e+00, 0.0000e+00
 3.1623e+04, 3.9811e+04, 0.0000e+00, 0.0000e+00, 0.0000e+00
 3.9811e+04, 5.0119e+04, 0.0000e+00, 0.0000e+00, 0.0000e+00
 5.0119e+04, 6.3096e+04, 0.0000e+00, 0.0000e+00, 0.0000e+00
 6.3096e+04, 7.9433e+04, 0.0000e+00, 0.0000e+00, 0.0000e+00
 7.9433e+04, 1.0000e+05, 0.0000e+00, 0.0000e+00, 0.0000e+00
 1.0000e+05, 1.2589e+05, 0.0000e+00, 0.0000e+00, 0.0000e+00
 1.2589e+05, 1.5849e+05, 1.0000e+05, 1.0785e+00, 3.4106e-01
 1.5849e+05, 1.9953e+05, 0.0000e+00, 0.0000e+00, 0.0000e+00
 1.9953e+05, 2.5119e+05, 0.0000e+00, 0.0000e+00, 0.0000e+00
 2.5119e+05, 3.1623e+05, 0.0000e+00, 0.0000e+00, 0.0000e+00
 3.1623e+05, 3.9811e+05, 0.0000e+00, 0.0000e+00, 0.0000e+00
 3.9811e+05, 5.0119e+05, 0.0000e+00, 0.0000e+00, 0.0000e+00
 5.0119e+05, 6.3096e+05, 0.0000e+00, 0.0000e+00, 0.0000e+00
 6.3096e+05, 7.9433e+05, 0.0000e+00, 0.0000e+00, 0.0000e+00
 7.9433e+05, 1.0000e+06, 0.0000e+00, 0.0000e+00, 0.0000e+00
'End of Block'
'*',    14,     4,     4,     0,     5,     5,    60,     7
'OMNIDIRECTIONAL FLUENCE ANALYSIS AS A FUNCTION OF ANGLE'
'MULASSIS tag ml-v01-26'
'geant4-10-01-patch-03 (5-February-2016)'
'File Created: Tue Nov 14 20:35:34 2023'
'FLU_BDY',  1, 2, ' '
'FLU_PAR', -1, 'proton', ' '
'FLU_AMN',  1, 0.0000e+00, 'deg'
'FLU_AMX',  1, 9.0000e+01, 'deg'
'Elo','keV',  1,'Lower edge of energy bin'
'Eup','keV',  1,'Upper edge of energy bin'
'Emean','keV',  1,'Mean energy of bin'
'Value','particles/cm2/bin',  1,'Fluence/flux'
'Error','particles/cm2/bin',  1,'Error in fluence/flux'
 1.0000e+00, 1.2589e+00, 0.0000e+00, 0.0000e+00, 0.0000e+00
 1.2589e+00, 1.5849e+00, 0.0000e+00, 0.0000e+00, 0.0000e+00
 1.5849e+00, 1.9953e+00, 0.0000e+00, 0.0000e+00, 0.0000e+00
 1.9953e+00, 2.5119e+00, 0.0000e+00, 0.0000e+00, 0.0000e+00
 2.5119e+00, 3.1623e+00, 0.0000e+00, 0.0000e+00, 0.0000e+00
 3.1623e+00, 3.9811e+00, 0.0000e+00, 0.0000e+00, 0.0000e+00
 3.9811e+00, 5.0119e+00, 0.0000e+00, 0.0000e+00, 0.0000e+00
 5.0119e+00, 6.3096e+00, 0.0000e+00, 0.0000e+00, 0.0000e+00
 6.3096e+00, 7.9433e+00, 0.0000e+00, 0.0000e+00, 0.0000e+00
 7.9433e+00, 1.0000e+01, 0.0000e+00, 0.0000e+00, 0.0000e+00
 1.0000e+01, 1.2589e+01, 0.0000e+00, 0.0000e+00, 0.0000e+00
 1.2589e+01, 1.5849e+01, 0.0000e+00, 0.0000e+00, 0.0000e+00
 1.5849e+01, 1.9953e+01, 0.0000e+00, 0.0000e+00, 0.0000e+00
 1.9953e+01, 2.5119e+01, 0.0000e+00, 0.0000e+00, 0.0000e+00
 2.5119e+01, 3.1623e+01, 0.0000e+00, 0.0000e+00, 0.0000e+00
 3.1623e+01, 3.9811e+01, 0.0000e+00, 0.0000e+00, 0.0000e+00
 3.9811e+01, 5.0119e+01, 0.0000e+00, 0.0000e+00, 0.0000e+00
 5.0119e+01, 6.3096e+01, 0.0000e+00, 0.0000e+00, 0.0000e+00
 6.3096e+01, 7.9433e+01, 0.0000e+00, 0.0000e+00, 0.0000e+00
 7.9433e+01, 1.0000e+02, 0.0000e+00, 0.0000e+00, 0.0000e+00
 1.0000e+02, 1.2589e+02, 0.0000e+00, 0.0000e+00, 0.0000e+00
 1.2589e+02, 1.5849e+02, 0.0000e+00, 0.0000e+00, 0.0000e+00
 1.5849e+02, 1.9953e+02, 0.0000e+00, 0.0000e+00, 0.0000e+00
 1.9953e+02, 2.5119e+02, 0.0000e+00, 0.0000e+00, 0.0000e+00
 2.5119e+02, 3.1623e+02, 0.0000e+00, 0.0000e+00, 0.0000e+00
 3.1623e+02, 3.9811e+02, 0.0000e+00, 0.0000e+00, 0.0000e+00
 3.9811e+02, 5.0119e+02, 0.0000e+00, 0.0000e+00, 0.0000e+00
 5.0119e+02, 6.3096e+02, 0.0000e+00, 0.0000e+00, 0.0000e+00
 6.3096e+02, 7.9433e+02, 0.0000e+00, 0.0000e+00, 0.0000e+00
 7.9433e+02, 1.0000e+03, 0.0000e+00, 0.0000e+00, 0.0000e+00
 1.0000e+03, 1.2589e+03, 0.0000e+00, 0.0000e+00, 0.0000e+00
 1.2589e+03, 1.5849e+03, 0.0000e+00, 0.0000e+00, 0.0000e+00
 1.5849e+03, 1.9953e+03, 0.0000e+00, 0.0000e+00, 0.0000e+00
 1.9953e+03, 2.5119e+03, 0.0000e+00, 0.0000e+00, 0.0000e+00
 2.5119e+03, 3.1623e+03, 0.0000e+00, 0.0000e+00, 0.0000e+00
 3.1623e+03, 3.9811e+03, 0.0000e+00, 0.0000e+00, 0.0000e+00
 3.9811e+03, 5.0119e+03, 0.0000e+00, 0.0000e+00, 0.0000e+00
 5.0119e+03, 6.3096e+03, 0.0000e+00, 0.0000e+00, 0.0000e+00
 6.3096e+03, 7.9433e+03, 0.0000e+00, 0.0000e+00, 0.0000e+00
 7.9433e+03, 1.0000e+04, 0.0000e+00, 0.0000e+00, 0.0000e+00
 1.0000e+04, 1.2589e+04, 0.0000e+00, 0.0000e+00, 0.0000e+00
 1.2589e+04, 1.5849e+04, 0.0000e+00, 0.0000e+00, 0.0000e+00
 1.5849e+04, 1.9953e+04, 0.0000e+00, 0.0000e+00, 0.0000e+00
 1.9953e+04, 2.5119e+04, 0.0000e+00, 0.0000e+00, 0.0000e+00
 2.5119e+04, 3.1623e+04, 0.0000e+00, 0.0000e+00, 0.0000e+00
